Distance(Rp) Density(g/cm^3) 
1.0 2.7633227502197016e-14
1.02 2.2946564123719728e-14
1.04 1.919140364405765e-14
1.06 1.6159312489171172e-14
1.08 1.3693142093047525e-14
1.1 1.1673370664786828e-14
1.12 1.0008337343932577e-14
1.1400000000000001 8.62719200185105e-15
1.16 7.474758763423486e-15
1.18 6.5077610487354596e-15
1.2 5.6920241121638776e-15
1.22 5.000385481024718e-15
1.24 4.4111223128078614e-15
1.26 3.9067592113714494e-15
1.28 3.473158192549091e-15
1.3 3.09881941340609e-15
1.32 2.7743404365846495e-15
1.34 2.4919955395895958e-15
1.36 2.2454065056992386e-15
1.3800000000000001 2.029283557958818e-15
1.4000000000000001 1.8392203925617397e-15
1.42 1.6715311743745877e-15
1.44 1.5231202580444615e-15
1.46 1.391377565350117e-15
1.48 1.274094178350679e-15
1.5 1.1693939392164065e-15
1.52 1.0756777835912216e-15
1.54 9.915782495978878e-16
1.56 9.15922154021506e-16
1.58 8.476998513522817e-16
1.6 7.86039820379889e-16
1.62 7.301875794376041e-16
1.6400000000000001 6.794881321186816e-16
1.6600000000000001 6.333713031082261e-16
1.68 5.913394483853599e-16
1.7 5.5295712284439e-16
1.72 5.178423670190694e-16
1.74 4.856593374253169e-16
1.76 4.56112055428133e-16
1.78 4.289390900980438e-16
1.8 4.0390902328294097e-16
1.82 3.808165716737991e-16
1.84 3.594792622337775e-16
1.86 3.3973457497422896e-16
1.8800000000000001 3.2143748147529583e-16
1.9000000000000001 3.0445831938028633e-16
1.92 2.8868095283323744e-16
1.94 2.7400117687123294e-16
1.96 2.6032533044100183e-16
1.98 2.4756908823714275e-16
2.0 2.3565640616047392e-16
2.02 2.245185990351394e-16
2.04 2.140935324356662e-16
2.06 2.043249131701841e-16
2.08 1.9516166523115663e-16
2.1 1.8655737993439583e-16
2.12 1.784698305793425e-16
2.14 1.7086054332887756e-16
2.16 1.636944171646197e-16
2.18 1.5693938675831702e-16
2.2 1.505661229384325e-16
2.22 1.4454776614701903e-16
2.24 1.3885968889427276e-16
2.2600000000000002 1.334792837427935e-16
2.2800000000000002 1.283857738042618e-16
2.3000000000000003 1.2356004311865854e-16
2.32 1.1898448462013884e-16
2.34 1.146428636819441e-16
2.36 1.1052019548206334e-16
2.38 1.0660263464718866e-16
2.4 1.0287737581999007e-16
2.42 9.933256395745268e-17
2.44 9.595721330977009e-17
2.46 9.27411341528729e-17
2.48 8.967486645545708e-17
2.5 8.674961975579364e-17
2.52 8.395721860616983e-17
2.54 8.129005301515066e-17
2.56 7.874103338166411e-17
2.58 7.630354947058141e-17
2.6 7.397143302901499e-17
2.62 7.173892368571122e-17
2.64 6.960063781445229e-17
2.66 6.755154007621759e-17
2.68 6.558691738479762e-17
2.7 6.370235506727925e-17
2.72 6.189371501424833e-17
2.74 6.015711563565118e-17
2.7600000000000002 5.84889134568445e-17
2.7800000000000002 5.688568620590331e-17
2.8000000000000003 5.534421725814998e-17
2.82 5.3861481317000157e-17
2.84 5.2434631222028675e-17
2.86 5.1060985785713405e-17
2.88 4.973801856974153e-17
2.9 4.846334752023274e-17
2.92 4.72347253888304e-17
2.94 4.605003087339189e-17
2.96 4.490726041819303e-17
2.98 4.3804520618980995e-17
3.0 4.2740021183295686e-17
3.02 4.1712068400826566e-17
3.04 4.0719059082688426e-17
3.06 3.9759474932127554e-17
3.08 3.883187731242754e-17
3.1 3.7934902380814315e-17
3.12 3.706725655981864e-17
3.14 3.622771232001393e-17
3.16 3.541510425026721e-17
3.18 3.462832539363015e-17
3.2 3.386632382886758e-17
3.22 3.312809947922022e-17
3.24 3.2412701131582857e-17
3.2600000000000002 3.171922365057086e-17
3.2800000000000002 3.104680537330129e-17
3.3000000000000003 3.0394625671745295e-17
3.3200000000000003 2.9761902670660866e-17
3.34 2.9147891109987057e-17
3.36 2.855188034148748e-17
3.38 2.7973192450230815e-17
3.4 2.7411180492197653e-17
3.42 2.6865226840002268e-17
3.44 2.633474162930577e-17
3.46 2.5819161299072408e-17
3.48 2.5317947219316277e-17
3.5 2.4830584400492007e-17
3.52 2.435658027906985e-17
3.54 2.3895463574283647e-17
3.56 2.344678321136813e-17
3.58 2.30101073069651e-17
3.6 2.2585022212668595e-17
3.62 2.2171131612998593e-17
3.64 2.1768055674305085e-17
3.66 2.1375430241399377e-17
3.68 2.0992906078919413e-17
3.7 2.0620148154624233e-17
3.72 2.02568349620097e-17
3.74 1.9902657879866536e-17
3.7600000000000002 1.955732056647476e-17
3.7800000000000002 1.9220538386372655e-17
3.8000000000000003 1.8892037867709475e-17
3.8200000000000003 1.8571556188359077e-17
3.84 1.825884068909774e-17
3.86 1.7953648412229328e-17
3.88 1.765574566416257e-17
3.9 1.7364907600575412e-17
3.92 1.708091783281409e-17
3.94 1.680356805433623e-17
3.96 1.653265768604936e-17
3.98 1.6267993539461062e-17
4.0 1.600938949663445e-17
4.0200000000000005 1.5756666206030205e-17
4.04 1.5509650793314465e-17
4.0600000000000005 1.526817658633908e-17
4.08 1.5032082853486296e-17
4.1 1.480121455467147e-17
4.12 1.4575422104294948e-17
4.14 1.435456114551547e-17
4.16 1.413849233521942e-17
4.18 1.3927081139140364e-17
4.2 1.3720197636565701e-17
4.22 1.3517716334136313e-17
4.24 1.3319515988272548e-17
4.26 1.3125479435754612e-17
4.28 1.293549343206041e-17
4.3 1.2749448497041867e-17
4.32 1.2567238767583034e-17
4.34 1.2388761856855403e-17
4.36 1.2213918719880513e-17
4.38 1.204261352504237e-17
4.4 1.1874753531275079e-17
4.42 1.1710248970634222e-17
4.44 1.1549012935997292e-17
4.46 1.1390961273620968e-17
4.48 1.123601248034334e-17
4.5 1.108408760518342e-17
4.5200000000000005 1.0935110155144149e-17
4.54 1.0789006004998448e-17
4.5600000000000005 1.0645703310885482e-17
4.58 1.0505132427522048e-17
4.6000000000000005 1.0367225828872291e-17
4.62 1.0231918032100632e-17
4.64 1.0099145524656984e-17
4.66 9.968846694362482e-18
4.68 9.84096176233366e-18
4.7 9.715432718635916e-18
4.72 9.592203260522629e-18
4.74 9.471218732808068e-18
4.76 9.352426072736628e-18
4.78 9.23577375179294e-18
4.8 9.121211726719932e-18
4.82 9.008691387345459e-18
4.84 8.898165508461285e-18
4.86 8.789588203256565e-18
4.88 8.682914878540284e-18
4.9 8.578102191680783e-18
4.92 8.475108009214648e-18
4.94 8.37389136700432e-18
4.96 8.274412431925723e-18
4.98 8.176632464996338e-18
5.0 8.080513785875453e-18
5.0200000000000005 7.9860197387077e-18
5.04 7.893114659217887e-18
5.0600000000000005 7.801763843027622e-18
5.08 7.711933515142571e-18
5.1000000000000005 7.623590800545658e-18
5.12 7.53670369587292e-18
5.14 7.45124104210337e-18
5.16 7.367172498238604e-18
5.18 7.284468515934848e-18
5.2 7.203100315025392e-18
5.22 7.12303985992313e-18
5.24 7.044259836858093e-18
5.26 6.966733631911903e-18
5.28 6.89043530982278e-18
5.3 6.8153395935298544e-18
5.32 6.7414218444313065e-18
5.34 6.668658043317647e-18
5.36 6.597024771966599e-18
5.38 6.526499195362523e-18
5.4 6.457059044529574e-18
5.42 6.388682599937174e-18
5.44 6.321348675471208e-18
5.46 6.2550366029471795e-18
5.48 6.189726217132963e-18
5.5 6.1253978412778555e-18
5.5200000000000005 6.062032273117909e-18
5.54 5.999610771341942e-18
5.5600000000000005 5.9381150425079405e-18
5.58 5.8775272283798285e-18
5.6000000000000005 5.8178298936822175e-18
5.62 5.759006014252198e-18
5.64 5.7010389655694195e-18
5.66 5.643912511658195e-18
5.68 5.587610794345296e-18
5.7 5.5321183228578666e-18
5.72 5.47741996375387e-18
5.74 5.423500931167104e-18
5.76 5.370346777362815e-18
5.78 5.317943383587529e-18
5.8 5.266276951204688e-18
5.82 5.215333993105887e-18
5.84 5.1651013253849226e-18
5.86 5.115566059274868e-18
5.88 5.066715593324537e-18
5.9 5.0185376058197825e-18
5.92 4.9710200474342935e-18
5.94 4.9241511340989055e-18
5.96 4.877919340093587e-18
5.98 4.8323133913379876e-18
6.0 4.7873222588938145e-18
6.0200000000000005 4.7429351526477455e-18
6.04 4.699141515193334e-18
6.0600000000000005 4.655931015889115e-18
6.08 4.613293545088827e-18
6.1000000000000005 4.571219208547938e-18
6.12 4.5296983219854954e-18
6.140000000000001 4.4887214058129085e-18
6.16 4.448279180005786e-18
6.18 4.408362559133535e-18
6.2 4.3689626475239644e-18
6.22 4.330070734572595e-18
6.24 4.2916782901813215e-18
6.26 4.253776960327829e-18
6.28 4.2163585627631884e-18
6.3 4.179415082826932e-18
6.32 4.1429386693823995e-18
6.34 4.106921630864742e-18
6.36 4.071356431438526e-18
6.38 4.036235687265231e-18
6.4 4.0015521628686746e-18
6.42 3.967298767606388e-18
6.44 3.933468552232587e-18
6.46 3.900054705560374e-18
6.48 3.8670505512117e-18
6.5 3.834449544455578e-18
6.5200000000000005 3.802245269132261e-18
6.54 3.770431434663342e-18
6.5600000000000005 3.739001873135494e-18
6.58 3.707950536470245e-18
6.6000000000000005 3.677271493663111e-18
6.62 3.646958928099506e-18
6.640000000000001 3.6170071349381505e-18
6.66 3.5874105185697905e-18
6.68 3.558163590135305e-18
6.7 3.5292609651135755e-18
6.72 3.5006973609726816e-18
6.74 3.472467594877287e-18
6.76 3.444566581462022e-18
6.78 3.4169893306565504e-18
6.8 3.3897309455707646e-18
6.82 3.3627866204322093e-18
6.84 3.3361516385761216e-18
6.86 3.3098213704870027e-18
6.88 3.28379127189071e-18
6.9 3.2580568818946725e-18
6.92 3.232613821172163e-18
6.94 3.2074577901970217e-18
6.96 3.1825845675175323e-18
6.98 3.157990008078585e-18
7.0 3.1336700415792534e-18
7.0200000000000005 3.1096206708775565e-18
7.04 3.0858379704310136e-18
7.0600000000000005 3.062318084774569e-18
7.08 3.039057227039684e-18
7.1000000000000005 3.016051677504747e-18
7.12 2.9932977821871543e-18
7.140000000000001 2.9707919514617784e-18
7.16 2.948530658719996e-18
7.18 2.9265104390567323e-18
7.2 2.9047278879910674e-18
7.22 2.883179660215744e-18
7.24 2.8618624683780973e-18
7.26 2.840773081890729e-18
7.28 2.81990832576744e-18
7.3 2.7992650794894535e-18
7.32 2.7788402758966597e-18
7.34 2.7586309001072284e-18
7.36 2.7386339884588303e-18
7.38 2.7188466274784872e-18
7.4 2.69926595287272e-18
7.42 2.6798891485450055e-18
7.44 2.660713445633096e-18
7.46 2.6417361215696286e-18
7.48 2.6229544991626797e-18
7.5 2.6043659457019384e-18
7.5200000000000005 2.585967872078665e-18
7.54 2.5677577319313437e-18
7.5600000000000005 2.549733020808353e-18
7.58 2.531891275349503e-18
7.6000000000000005 2.514230072485572e-18
7.62 2.4967470286583893e-18
7.640000000000001 2.4794397990553276e-18
7.66 2.4623060768623192e-18
7.68 2.4453435925338036e-18
7.7 2.428550113078073e-18
7.72 2.4119234413594707e-18
7.74 2.3954614154148216e-18
7.76 2.379161907785567e-18
7.78 2.363022824865549e-18
7.8 2.34704210625907e-18
7.82 2.3312177241603466e-18
7.84 2.315547682737533e-18
7.86 2.3000300175378013e-18
7.88 2.2846627948999316e-18
7.9 2.26944411138335e-18
7.92 2.254372093206238e-18
7.94 2.2394448956990723e-18
7.96 2.2246607027653033e-18
7.98 2.2100177263592804e-18
8.0 2.1955142059700864e-18
8.02 2.1811484081192943e-18
8.040000000000001 2.1669186258675867e-18
8.06 2.1528231783340468e-18
8.08 2.138860410223142e-18
8.1 2.125028691363213e-18
8.120000000000001 2.1113264162525598e-18
8.14 2.0977520036182092e-18
8.16 2.0843038959818026e-18
8.18 2.0709805592331274e-18
8.2 2.0577804822156322e-18
8.22 2.0447021763187937e-18
8.24 2.0317441750781664e-18
8.26 2.018905033784513e-18
8.28 2.0061833291011813e-18
8.3 1.9935776586888984e-18
8.32 1.981086640837809e-18
8.34 1.9687089141078524e-18
8.36 1.9564431369747893e-18
8.38 1.9442879874857843e-18
8.4 1.93224216291938e-18
8.42 1.9203043794549965e-18
8.44 1.908473371845002e-18
8.46 1.8967478930978366e-18
8.48 1.8851267141655517e-18
8.5 1.873608623635087e-18
8.52 1.862192427430698e-18
8.540000000000001 1.850876948517411e-18
8.56 1.8396610266132485e-18
8.58 1.8285435179061386e-18
8.6 1.81752329477662e-18
8.620000000000001 1.806599245525022e-18
8.64 1.7957702741053648e-18
8.66 1.785035299863212e-18
8.68 1.7743932572797034e-18
8.700000000000001 1.7638430957193322e-18
8.72 1.753383779183394e-18
8.74 1.7430142860684014e-18
8.76 1.7327336089273827e-18
8.78 1.7225407542385217e-18
8.8 1.7124347421756286e-18
8.82 1.7024146063840456e-18
8.84 1.692479393761322e-18
8.86 1.6826281642414306e-18
8.88 1.6728599905827369e-18
8.9 1.6631739581599216e-18
8.92 1.653569164761126e-18
8.94 1.644044720387495e-18
8.96 1.6345997470566928e-18
8.98 1.625233378610576e-18
9.0 1.6159447605255994e-18
9.02 1.6067330497282929e-18
9.040000000000001 1.5975974144125148e-18
9.06 1.5885370338597758e-18
9.08 1.5795510982657277e-18
9.1 1.5706388085661245e-18
9.120000000000001 1.5617993762682774e-18
9.14 1.5530320232855595e-18
9.16 1.5443359817730746e-18
9.18 1.5357104939690986e-18
9.200000000000001 1.5271548120363003e-18
9.22 1.5186681979088464e-18
9.24 1.5102499231399486e-18
9.26 1.5018992687528783e-18
9.28 1.4936155250956283e-18
9.3 1.4853979916961387e-18
9.32 1.4772459771228223e-18
9.34 1.469158798844056e-18
9.36 1.4611357830941141e-18
9.38 1.4531762647379753e-18
9.4 1.4452795871409651e-18
9.42 1.4374451020391915e-18
9.44 1.429672169413201e-18
9.46 1.4219601573631075e-18
9.48 1.4143084419868404e-18
9.5 1.4067164072592856e-18
9.52 1.3991834449142276e-18
9.540000000000001 1.391708954329278e-18
9.56 1.3842923424103817e-18
9.58 1.376933023480681e-18
9.6 1.3696304191696057e-18
9.620000000000001 1.3623839583059735e-18
9.64 1.3551930768103206e-18
9.66 1.3480572175899918e-18
9.68 1.3409758304385489e-18
9.700000000000001 1.3339483719317879e-18
9.72 1.3269743053303372e-18
9.74 1.320053100482051e-18
9.76 1.3131842337246658e-18
9.78 1.3063671877925803e-18
9.8 1.2996014517238229e-18
9.82 1.2928865207685702e-18
9.84 1.2862218962991711e-18
9.86 1.2796070857230085e-18
9.88 1.2730416023945529e-18
9.9 1.2665249655306608e-18
9.92 1.2600567001270095e-18
9.94 1.2536363368748268e-18
9.96 1.2472634120800606e-18
9.98 1.2409374675843017e-18
